"Time (s)","Linear Acceleration x (m/s^2)","Linear Acceleration y (m/s^2)","Linear Acceleration z (m/s^2)"
7.044422700E-2,-4.336295128E-1,-5.494732857E-1,3.274092674E-1
7.546214400E-2,-4.803671837E-1,-4.992942810E-1,2.595643997E-1
8.048006000E-2,-4.712538719E-1,-4.645352364E-1,1.525030136E-1
8.549797700E-2,-4.418120384E-1,-4.387712479E-1,8.677196503E-2
9.051589400E-2,-3.870100975E-1,-4.239859581E-1,3.538370132E-2
9.553381000E-2,-3.435783386E-1,-3.853392601E-1,-3.218555450E-2
1.005517270E-1,-3.032512665E-1,-3.347473145E-1,-9.510707855E-2
1.055696440E-1,-2.427592278E-1,-2.746276855E-1,-1.120262146E-1
1.105875600E-1,-1.124787331E-1,-2.252864838E-1,-9.443187714E-2
1.156054770E-1,2.017211914E-2,-1.914768219E-1,-3.353118896E-2
1.206233940E-1,1.250405312E-1,-1.653003693E-1,3.924369812E-3
1.256413100E-1,2.294330597E-1,-1.496381760E-1,7.435703278E-2
1.306592270E-1,3.007669449E-1,-1.130719185E-1,1.092381477E-1
1.356771440E-1,3.338975906E-1,-1.217508316E-1,1.665182114E-1
1.406950600E-1,3.014545441E-1,-9.938192368E-2,2.133622169E-1
1.457129770E-1,2.424225807E-1,-9.435653687E-2,2.628569603E-1
1.507308940E-1,1.410026550E-1,-8.207511902E-2,2.699356079E-1
1.557488100E-1,5.827808380E-2,-7.314968109E-2,2.833027840E-1
1.607667270E-1,-8.064270020E-3,-7.228422165E-2,2.413630486E-1
1.657846440E-1,-3.230094910E-2,-8.257532120E-2,1.849393845E-1
1.708025600E-1,-3.230762482E-2,-1.266069412E-1,1.000704765E-1
1.758204770E-1,-2.374458313E-2,-1.511020660E-1,2.230262756E-2
1.808383940E-1,-2.779150009E-2,-1.750912666E-1,-2.677917480E-2
1.858563100E-1,-1.396560669E-2,-1.658110619E-1,-6.924533844E-2
1.908742270E-1,-5.790233612E-3,-1.636462212E-1,-9.594964981E-2
1.958921440E-1,1.570320129E-2,-1.495943069E-1,-1.236658096E-1
2.009100600E-1,2.708816528E-2,-1.436238289E-1,-1.640210152E-1
2.059279770E-1,2.063894272E-2,-1.395859718E-1,-2.015395164E-1
2.109458940E-1,4.014873505E-2,-1.360106468E-1,-2.165579796E-1
2.159638100E-1,5.454444885E-2,-1.480946541E-1,-2.213463783E-1
2.209817270E-1,4.279613495E-2,-1.614379883E-1,-2.384347916E-1
2.259996440E-1,2.999210358E-2,-1.714043617E-1,-2.067403793E-1
2.310175600E-1,1.022052765E-2,-1.770377159E-1,-1.553554535E-1
2.360354770E-1,-3.288316727E-2,-2.091231346E-1,-1.161503792E-1
2.410533940E-1,-6.611919403E-2,-2.181582451E-1,-3.365135193E-2
2.460713100E-1,-1.004805565E-1,-2.236366272E-1,8.901500702E-2
2.510892270E-1,-8.322429657E-2,-2.036457062E-1,2.536644936E-1
2.561071440E-1,-2.450561523E-2,-1.906676292E-1,3.895912170E-1
2.611250600E-1,5.553150177E-2,-1.952867508E-1,5.049653053E-1
2.661429770E-1,1.310005188E-1,-1.914472580E-1,5.676412582E-1
2.711608940E-1,1.868762970E-1,-2.382063866E-1,6.152377129E-1
2.761788100E-1,2.154836655E-1,-2.524261475E-1,6.422567368E-1
2.811967270E-1,2.220449448E-1,-2.687072754E-1,6.208233833E-1
2.862146440E-1,2.059125900E-1,-2.423329353E-1,5.929660797E-1
2.912325600E-1,1.922092438E-1,-2.351355553E-1,5.469927788E-1
2.962504770E-1,1.702740192E-1,-2.041425705E-1,4.641575813E-1
3.012683940E-1,1.600930691E-1,-2.001843452E-1,3.448600769E-1
3.062863100E-1,1.366815567E-1,-1.789646149E-1,2.223644257E-1
3.113042270E-1,1.272470951E-1,-1.686086655E-1,1.316671371E-1
3.163221440E-1,1.290328503E-1,-1.511335373E-1,2.727508545E-2
3.213400600E-1,1.207089424E-1,-1.263570786E-1,-8.845329285E-2
3.263579770E-1,1.178267002E-1,-1.177601814E-1,-1.824874878E-1
3.313758940E-1,1.003403664E-1,-1.153011322E-1,-2.648329735E-1
3.363938100E-1,1.015460491E-1,-9.390401840E-2,-3.252077103E-1
3.414117270E-1,1.032822132E-1,-5.953931808E-2,-4.207892418E-1
3.464296440E-1,1.233358383E-1,-4.054069519E-2,-4.921703339E-1
3.514475600E-1,1.046428680E-1,-1.997041702E-2,-5.635409355E-1
3.564654770E-1,8.184170723E-2,1.161479950E-2,-6.633157730E-1
3.614833940E-1,2.996230125E-2,5.775451660E-2,-7.193541527E-1
3.665013620E-1,-1.777625084E-2,1.053199768E-1,-7.737269402E-1
3.715194870E-1,-7.105565071E-2,1.400938034E-1,-7.958211899E-1
3.765376120E-1,-8.883953094E-2,1.718697548E-1,-8.264865875E-1
3.815557370E-1,-4.946947098E-2,1.817607880E-1,-8.609900475E-1
3.865738620E-1,-1.032590866E-3,1.700134277E-1,-9.382605553E-1
3.915919870E-1,7.749032974E-2,1.144628525E-1,-9.739270210E-1
3.966101120E-1,1.621515751E-1,1.267986298E-1,-9.189023972E-1
4.016282370E-1,1.768345833E-1,1.398930550E-1,-8.902573586E-1
4.066463620E-1,8.280134201E-2,1.726846695E-1,-9.127402306E-1
4.116644870E-1,-1.513209343E-1,1.986417770E-1,-9.397616386E-1
4.166826120E-1,-4.459316730E-1,-6.359815598E-2,-9.268503189E-1
4.217007370E-1,-7.842490673E-1,-2.546410561E-1,-1.309142113E0
4.267188620E-1,-1.159544945E0,-1.884407997E-1,-1.590320110E0
4.317369870E-1,-1.544828653E0,-7.607173920E-2,-1.533499718E0
4.367551120E-1,-1.821965218E0,7.579517365E-2,-1.684660435E0
4.417732370E-1,-2.074871778E0,3.032684326E-1,-2.713335514E0
4.467913620E-1,-2.062776089E0,4.248743057E-1,-3.416729927E0
4.518094870E-1,-2.056655645E0,5.075173378E-1,-3.580453873E0
4.568276120E-1,-1.428336143E0,2.122182846E-1,-3.572425842E0
4.618457370E-1,-7.654492855E-1,5.814075470E-2,-3.334008217E0
4.668638620E-1,-3.777623177E-1,4.531803131E-1,-2.976532459E0
4.718819870E-1,-5.946874619E-3,9.710288048E-1,-3.006950855E0
4.769001120E-1,4.435868263E-1,1.148526192E0,-2.467238903E0
4.819182370E-1,7.313113213E-1,1.141840935E0,-1.619516850E0
4.869363620E-1,9.067755938E-1,1.026014566E0,-9.147977829E-1
4.919544870E-1,1.166795254E0,7.820913792E-1,9.007644653E-2
4.969726120E-1,1.605864167E0,3.696227074E-1,9.577379227E-1
5.019907370E-1,2.224831104E0,-6.678724289E-1,1.881155968E0
5.070088620E-1,2.636853218E0,-1.548353910E0,2.618347168E0
5.120269870E-1,2.951884747E0,-1.705332875E0,3.018249512E0
5.170451120E-1,2.813215971E0,-1.857563496E0,2.954405785E0
5.220632370E-1,2.385250807E0,-1.932233334E0,2.872382164E0
5.270813620E-1,1.742731810E0,-1.771760702E0,3.047281265E0
5.320994870E-1,1.039464355E0,-1.427997112E0,3.279324532E0
5.371176120E-1,4.146034718E-1,-9.783143401E-1,3.466124535E0
5.421357370E-1,-4.065132141E-2,-5.020695925E-1,3.592413902E0
5.471538620E-1,-3.201808929E-1,-3.871273994E-2,3.635632515E0
5.521719870E-1,-4.475069046E-1,3.617279530E-1,3.590803146E0
5.571901120E-1,-5.882217884E-1,6.492967606E-1,3.467161179E0
5.622082370E-1,-5.330824852E-1,8.617027998E-1,3.053464890E0
5.672263620E-1,-1.218765974E-1,9.604235888E-1,2.241502762E0
5.722444870E-1,2.800941467E-1,1.005029917E0,1.310647964E0
5.772625600E-1,7.721154690E-1,8.139396906E-1,1.840696335E-1
5.822804770E-1,1.258992434E0,5.480167270E-1,-8.523721695E-1
5.872983940E-1,1.662236810E0,3.782344460E-1,-1.712089539E0
5.923163100E-1,1.909616709E0,2.165701389E-1,-2.367154121E0
5.973342270E-1,2.100231409E0,3.321772814E-2,-2.654456615E0
6.023521440E-1,2.297874928E0,-1.208667755E-1,-2.786033630E0
6.073700600E-1,2.456834793E0,-2.546845078E-1,-2.788024902E0
6.123879770E-1,2.530801058E0,-3.882037997E-1,-2.699281693E0
6.174058940E-1,1.720720530E0,-5.914406776E-1,-2.445539474E0
6.224238100E-1,-8.806878328E-1,-1.122995019E0,-2.344683647E0
6.274417270E-1,-2.390389442E0,-1.445866823E0,-1.845007896E0
6.324596440E-1,-1.715076447E0,-1.766283154E0,-1.245121956E0
6.374775600E-1,-2.169476986E0,-2.370246172E0,-1.389968395E0
6.424954770E-1,-2.853814125E0,-2.743942261E0,-2.857112885E-1
6.475133940E-1,-2.560643435E0,-2.758263350E0,-5.874032974E-1
6.525313100E-1,-1.776388645E0,-2.465049267E0,-1.706092834E0
6.575492270E-1,-6.115670204E-1,-1.613233447E0,-1.806437969E0
6.625671440E-1,1.619575024E-1,-7.733152509E-1,-1.030770302E0
6.675850600E-1,5.678098202E-1,-2.513175607E-1,2.206707001E-2
6.726029770E-1,1.093886256E0,-3.243713677E-1,5.132989883E-1
6.776208940E-1,1.348277450E0,-5.264752507E-1,8.808574677E-1
6.826388100E-1,1.234154820E0,-6.997160912E-1,1.370234489E0
6.876567270E-1,8.744950294E-1,-6.577668190E-1,2.183127403E0
6.926746440E-1,8.290376663E-1,-4.320189953E-1,2.899130821E0
6.976925600E-1,1.785863876E0,8.603113890E-2,2.973639488E0
7.027104770E-1,2.883754015E0,9.074724913E-1,2.317940712E0
7.077283940E-1,3.848348141E0,1.425052166E0,1.979118347E0
7.127463100E-1,3.868438721E0,1.351209164E0,3.065194130E0
7.177642270E-1,3.645272732E0,1.118404031E0,4.862466812E0
7.227821440E-1,2.960003853E0,5.328968763E-1,8.279245377E0
7.278000600E-1,1.768802643E0,-5.757373571E-2,1.248269558E1
7.328179770E-1,1.779037237E0,-1.232959628E-1,1.315270329E1
7.378358940E-1,2.186836958E0,-9.046148658E-1,1.457250309E1
7.428538100E-1,2.654986620E0,-2.000814915E0,1.661834717E1
7.478717270E-1,3.296689749E0,-3.186641932E0,1.841269684E1
7.528896440E-1,4.500219345E0,-4.292974949E0,1.938964272E1
7.579075600E-1,5.381453037E0,-5.057451248E0,1.947967148E1
7.629254770E-1,5.179008484E0,-5.162803173E0,1.864587021E1
7.679433940E-1,3.668577671E0,-4.305500507E0,1.713812256E1
7.729613100E-1,1.900334835E0,-3.520746708E0,1.535363197E1
7.779792270E-1,1.763733625E0,-2.619492054E0,1.346059036E1
7.829971440E-1,2.068703890E0,-1.964617491E0,1.107103539E1
7.880150600E-1,2.227710485E0,-1.170173407E0,8.687919617E0
7.930329770E-1,2.566641569E0,-8.380628824E-1,5.453399658E0
7.980508940E-1,2.406388998E0,-9.834367037E-1,2.115494728E0
8.030688100E-1,2.758817911E0,-6.109204292E-1,-5.172100067E-1
8.080867270E-1,2.546676636E0,-6.407880783E-1,-3.199745655E0
8.131046440E-1,2.196321011E0,-1.656513214E-1,-4.715925217E0
8.181225600E-1,1.321563482E0,3.120517731E-2,-6.071073532E0
8.231404770E-1,2.020146370E0,4.998397827E-2,-7.312321186E0
8.281583940E-1,1.229643941E0,-3.643555641E-1,-8.154724121E0
8.331763100E-1,-1.085325122E0,-1.036857605E0,-8.043704987E0
8.381942270E-1,-2.962378502E0,-1.608153462E0,-7.849774361E0
8.432121440E-1,-3.848087311E0,-1.924160242E0,-7.990160942E0
8.482300600E-1,-4.013361454E0,-1.836172581E0,-8.725383759E0
8.532479770E-1,-3.103919029E0,-1.250320911E0,-9.067270279E0
8.582658940E-1,-1.909294128E0,-5.947628021E-1,-9.323973656E0
8.632838620E-1,-1.176362753E0,-3.685474396E-1,-1.025474548E1
8.683019870E-1,-7.364513874E-1,-6.386559010E-1,-1.159318542E1
8.733201120E-1,-4.442262650E-1,-1.331559896E0,-1.282635880E1
8.783382370E-1,-1.727218628E-1,-1.954435349E0,-1.376545525E1
8.833563620E-1,-2.718859911E-1,-2.433173895E0,-1.462954521E1
8.883744870E-1,-8.404234648E-1,-2.707543850E0,-1.560077953E1
8.933926120E-1,-1.845685124E0,-2.782947063E0,-1.671321678E1
8.984107370E-1,-2.928349018E0,-2.713347435E0,-1.793215370E1
9.034288620E-1,-3.877438307E0,-2.644019604E0,-1.920781326E1
9.084469870E-1,-4.674857616E0,-2.627879381E0,-2.041015053E1
9.134651120E-1,-5.426739216E0,-2.577262402E0,-2.125288200E1
9.184832370E-1,-6.198357582E0,-2.545859575E0,-2.215821457E1
9.235013620E-1,-6.854225159E0,-2.469134808E0,-2.283803940E1
9.285194870E-1,-7.492917538E0,-2.295497656E0,-2.325661469E1
9.335376120E-1,-8.081368446E0,-1.999493122E0,-2.336684990E1
9.385557370E-1,-8.518463135E0,-1.717396259E0,-2.351227951E1
9.435738620E-1,-8.550687790E0,-1.513631821E0,-2.316248703E1
9.485919870E-1,-8.255614281E0,-1.290871620E0,-2.245578003E1
9.536101120E-1,-7.411293030E0,-1.214373112E0,-2.148860550E1
9.586282370E-1,-6.242240906E0,-1.194414616E0,-1.988786316E1
9.636463620E-1,-4.604122639E0,-1.112339020E0,-1.769008446E1
9.686644870E-1,-1.939335108E0,-9.932675362E-1,-1.514534569E1
9.736826120E-1,1.666435361E0,-1.031338930E0,-1.209007454E1
9.787007370E-1,5.742002487E0,-1.313808918E0,-8.234468460E0
9.837188620E-1,9.726654053E0,-1.897352934E0,-3.253583908E0
9.887369870E-1,1.317387962E1,-2.824147224E0,2.993221760E0
9.937551120E-1,1.550539017E1,-3.998821259E0,1.048082542E1
9.987732370E-1,1.624622917E1,-5.123685837E0,1.880242157E1
1.003791362E0,1.506482983E1,-5.819288254E0,2.701785278E1
1.008809487E0,1.386099148E1,-6.441628456E0,3.470497131E1
1.013827612E0,1.275965214E1,-7.310793400E0,4.138801193E1
1.018845737E0,1.118264294E1,-8.145000458E0,4.651911926E1
1.023863862E0,9.137907028E0,-9.227132797E0,5.004313660E1
1.028881987E0,6.248154640E0,-1.013500500E1,5.154029846E1
1.033900112E0,3.185440063E0,-1.054873371E1,5.105501556E1
1.038918237E0,6.538553238E-1,-1.042155838E1,4.807254410E1
1.043936362E0,-5.919875503E-1,-1.015736008E1,4.307246017E1
1.048954487E0,-4.965195656E-1,-9.751447678E0,3.681758881E1
1.053972612E0,5.652616024E-1,-9.185789108E0,3.006672859E1
1.058990737E0,2.097352982E0,-8.510770798E0,2.311117172E1
1.064008862E0,3.423207283E0,-7.804278374E0,1.625835037E1
1.069027873E0,3.877612829E0,-7.034808159E0,9.830829620E0
1.074043081E0,3.614045620E0,-6.196214199E0,4.372953415E0
1.079058446E0,2.380687714E0,-5.275717735E0,-1.549968719E-1
1.084074019E0,1.069888234E0,-4.645679951E0,-3.381916046E0
1.089089800E0,-8.518637717E-2,-4.452936172E0,-5.191325188E0
1.094105946E0,-1.360400438E0,-4.486649990E0,-5.957960129E0
1.099122508E0,-2.641366482E0,-4.388185978E0,-6.424910545E0
1.104139487E0,-3.767260075E0,-4.086592197E0,-7.301401138E0
1.109156883E0,-4.465968609E0,-3.766950607E0,-8.783041000E0
1.114174696E0,-4.740245819E0,-3.503577709E0,-1.074545574E1
1.119192925E0,-4.808476448E0,-3.371147394E0,-1.312247658E1
1.124211571E0,-5.014000893E0,-3.255773783E0,-1.587615490E1
1.129230633E0,-5.449932098E0,-3.041755676E0,-1.887534523E1
1.134250112E0,-5.921388626E0,-2.736200809E0,-2.206992531E1
1.139269852E0,-6.255360603E0,-2.320257902E0,-2.551582336E1
1.144289800E0,-6.601017475E0,-1.772059202E0,-2.910289764E1
1.149309800E0,-6.527181149E0,-1.348072052E0,-3.257629776E1
1.154329800E0,-4.078656197E0,-5.132446289E-1,-3.595713043E1
1.159349800E0,-5.277018070E0,-5.691556931E-1,-3.755449295E1
1.164369019E0,-6.778581142E0,-8.260750771E-1,-3.933032608E1
1.169387352E0,-8.002728462E0,-1.365212917E0,-4.151612473E1
1.174405321E0,-8.221328735E0,-1.450253010E0,-4.025531387E1
1.179423237E0,-7.262020111E0,-1.134315491E0,-3.725267792E1
1.184441154E0,-5.572351933E0,-6.284723282E-1,-3.349462128E1
1.189459071E0,-3.122190952E0,-6.302547455E-2,-2.942150879E1
1.194476987E0,-2.955171466E-1,2.230296135E-1,-2.527883720E1
1.199494904E0,1.286135554E0,-1.992111206E-1,-2.041909027E1
1.204512821E0,2.105360746E0,-9.935598373E-1,-1.531739902E1
1.209530737E0,2.922850132E0,-1.674145699E0,-1.062663555E1
1.214548654E0,3.783303976E0,-2.108358383E0,-6.167880058E0
1.219566571E0,4.227622509E0,-2.467747688E0,-1.609128952E0
1.224584487E0,4.207342625E0,-2.786817551E0,3.016673565E0
1.229602404E0,3.941935778E0,-3.118107796E0,7.300450802E0
1.234620321E0,3.869494677E0,-3.547443151E0,1.096645927E1
1.239638237E0,4.384308338E0,-4.064137459E0,1.416764545E1
1.244656154E0,5.729913235E0,-4.790632725E0,1.713124084E1
1.249674071E0,7.768888474E0,-5.577512741E0,2.041797447E1
1.254691987E0,9.877159119E0,-6.364603043E0,2.459776688E1
1.259709904E0,1.173338890E1,-7.175427437E0,2.956599045E1
1.264727821E0,1.324964237E1,-7.949104309E0,3.466110229E1
1.269745737E0,1.378393650E1,-8.486564636E0,3.943687820E1
1.274763654E0,1.260081959E1,-8.696372032E0,4.322519684E1
1.279781571E0,1.011199570E1,-8.647853851E0,4.526695251E1
1.284799487E0,7.485221386E0,-8.533569336E0,4.492993546E1
1.289817404E0,5.492823124E0,-8.347395897E0,4.208535004E1
1.294835321E0,4.300510883E0,-8.094221115E0,3.748170471E1
1.299853237E0,3.806574821E0,-7.730948448E0,3.212000275E1
1.304871154E0,3.653559208E0,-7.286715984E0,2.673285294E1
1.309889071E0,3.447423458E0,-6.794750214E0,2.133827209E1
1.314906987E0,3.292739868E0,-6.246183395E0,1.598730469E1
1.319924904E0,3.449306726E0,-5.563601971E0,1.091875172E1
1.324942821E0,3.648148298E0,-4.828449249E0,6.423727036E0
1.329960737E0,3.539135695E0,-4.172930241E0,2.890135765E0
1.334978654E0,2.996129036E0,-3.595845222E0,6.109476089E-1
1.339996571E0,2.155890226E0,-2.986678600E0,-6.122560501E-1
1.345014487E0,1.360042810E0,-2.318198204E0,-1.538297653E0
1.350032404E0,9.521676302E-1,-1.628567457E0,-3.107401371E0
1.355050321E0,1.068569064E0,-1.079020977E0,-5.757653713E0
1.360068237E0,1.564163804E0,-6.368103027E-1,-9.246909142E0
1.365086154E0,2.027630091E0,-1.287407875E-1,-1.320115852E1
1.370104071E0,2.261323452E0,4.424114227E-1,-1.709681702E1
1.375121987E0,2.203344345E0,1.261630535E0,-2.044769669E1
1.380139904E0,1.560762286E0,1.479764462E0,-2.326995087E1
1.385157821E0,1.163484693E0,1.573567390E0,-2.545657730E1
1.390175737E0,7.886751294E-1,1.744119167E0,-2.720010567E1
1.395193654E0,1.853016019E-1,2.029663563E0,-2.821950531E1
1.400211571E0,-5.364391208E-1,2.314915180E0,-2.863478851E1
1.405229487E0,-1.246225834E0,2.739482880E0,-2.864567566E1
1.410247404E0,-1.552120686E0,2.983507156E0,-2.832192230E1
1.415265321E0,-1.392964125E0,3.066971779E0,-2.776471329E1
1.420283237E0,-4.495742917E-1,3.057290554E0,-2.713209534E1
1.425305842E0,1.157949090E0,3.141035080E0,-2.645428467E1
1.430323758E0,2.558317661E0,2.945594788E0,-2.552075577E1
1.435341675E0,4.288773537E0,2.548213482E0,-2.411443901E1
1.440359592E0,5.615931988E0,2.040267944E0,-2.185253143E1
1.445377508E0,6.291557312E0,1.164367199E0,-1.870840454E1
1.450395425E0,6.778086185E0,-5.974674225E-2,-1.486394215E1
1.455413342E0,6.908927441E0,-1.597286940E0,-1.018561459E1
1.460431258E0,6.723302364E0,-3.375651598E0,-4.645709991E0
1.465449175E0,6.343185902E0,-5.166663170E0,1.566955566E0
1.470467092E0,5.753219128E0,-6.913742065E0,8.378959656E0
1.475485008E0,4.893099785E0,-8.531970024E0,1.551296616E1
1.480502925E0,4.165081024E0,-9.918955803E0,2.260272789E1
1.485520842E0,3.720425606E0,-1.101266384E1,2.915363693E1
1.490538758E0,3.419406414E0,-1.169610691E1,3.460022736E1
1.495556675E0,3.059156895E0,-1.191376114E1,3.832411194E1
1.500574592E0,2.318760872E0,-1.209696102E1,4.025838470E1
1.505592508E0,1.261164904E0,-1.194589138E1,3.962318420E1
1.510610425E0,-3.925918937E-1,-1.117876053E1,3.635974503E1
1.515628342E0,-1.806076050E0,-1.022525597E1,3.178246307E1
1.520646258E0,-2.481844187E0,-9.281082153E0,2.659916878E1
1.525664175E0,-2.555369854E0,-8.516649246E0,2.113206863E1
1.530682092E0,-2.223795414E0,-7.771990776E0,1.546082592E1
1.535700008E0,-1.927620769E0,-6.887569427E0,9.893419266E0
1.540717925E0,-1.861672878E0,-5.967737675E0,4.885760307E0
1.545735842E0,-2.089116335E0,-5.108593464E0,8.595285416E-1
1.550753758E0,-2.636315107E0,-4.238251209E0,-1.948925972E0
1.555771675E0,-3.193387747E0,-3.393642426E0,-3.507699013E0
1.560789592E0,-3.460303307E0,-2.574082613E0,-4.141427994E0
1.565807508E0,-3.277495384E0,-1.677387476E0,-4.492750645E0
1.570825425E0,-2.633501530E0,-7.199628353E-1,-5.288517475E0
1.575843342E0,-1.573986053E0,2.516818047E-1,-6.965542793E0
1.580861258E0,-2.972971201E-1,1.220729828E0,-9.388912201E0
1.585879175E0,9.329533577E-1,2.175539494E0,-1.227139950E1
1.590897092E0,1.922291994E0,3.057745457E0,-1.525470638E1
1.595915008E0,2.576766968E0,3.805796146E0,-1.799032974E1
1.600932925E0,2.825167656E0,4.535780907E0,-2.019021225E1
1.605950842E0,2.880419016E0,5.255566120E0,-2.179556847E1
1.610968758E0,2.994825602E0,5.787539959E0,-2.284619141E1
1.615986675E0,3.156414032E0,6.093880177E0,-2.341460419E1
1.621004592E0,3.331001282E0,6.230127335E0,-2.351862144E1
1.626022508E0,3.538475990E0,6.415037155E0,-2.338603210E1
1.631040425E0,3.936613560E0,6.550357819E0,-2.341421127E1
1.636058342E0,4.547487259E0,6.653795719E0,-2.376830673E1
1.641076258E0,5.211674213E0,6.604553223E0,-2.428429604E1
1.646094175E0,5.823498726E0,6.317349434E0,-2.468069839E1
1.651112092E0,6.262434959E0,5.802052498E0,-2.467393494E1
1.656130008E0,6.427721500E0,5.047656536E0,-2.403802681E1
1.661147925E0,6.274212837E0,3.949079037E0,-2.269824982E1
1.666165842E0,5.935030937E0,2.469139576E0,-2.056795883E1
1.671183758E0,5.244739532E0,6.262359619E-1,-1.733618927E1
1.676201675E0,3.936601877E0,-1.406951666E0,-1.259920788E1
1.681219592E0,2.205320597E0,-3.530482054E0,-6.457043648E0
1.686237508E0,6.282325983E-1,-5.619384289E0,4.761915207E-1
1.691255425E0,-7.470365167E-1,-7.530307293E0,7.367398262E0
1.696273394E0,-1.905347109E0,-9.242261887E0,1.358349228E1
1.701291519E0,-2.705213547E0,-1.068723869E1,1.896423721E1
1.706309644E0,-2.835046530E0,-1.177387047E1,2.382043457E1
1.711327769E0,-2.223490953E0,-1.252638912E1,2.823598862E1
1.716345894E0,-1.027280450E0,-1.298855782E1,3.165899849E1
1.721364019E0,-3.325078636E-2,-1.325437927E1,3.384193039E1
1.726382144E0,6.722769737E-1,-1.350562859E1,3.465932846E1
1.731400269E0,-2.470134199E-2,-1.283330727E1,3.309475327E1
1.736418394E0,-1.451605439E0,-1.169296265E1,3.002618790E1
1.741436519E0,-2.978470325E0,-1.062881851E1,2.616214943E1
1.746454644E0,-4.241024017E0,-9.718429565E0,2.230395699E1
