"Time (s)","w","x","y","z"
2.165965300E-2,6.564254010E-2,-6.107999943E-3,-7.235100120E-2,-9.951980114E-1
3.171365300E-2,6.551737708E-2,-4.842999857E-3,-7.251899689E-2,-9.952009916E-1
4.176365300E-2,6.538152165E-2,-3.579000011E-3,-7.268700004E-2,-9.952030182E-1
5.181465300E-2,6.523682760E-2,-2.314999932E-3,-7.285500318E-2,-9.952039719E-1
6.186565300E-2,6.511606082E-2,-2.075999975E-3,-7.288800180E-2,-9.952099919E-1
7.191740300E-2,6.490155525E-2,-2.234000014E-3,-7.267799973E-2,-9.952390194E-1
8.196940300E-2,6.461310418E-2,-2.795000095E-3,-7.244999707E-2,-9.952729940E-1
9.202106900E-2,6.432466562E-2,-3.700000001E-3,-7.224000245E-2,-9.953039885E-1
1.020720690E-1,6.410037506E-2,-4.712999798E-3,-7.202199847E-2,-9.953299761E-1
1.121230690E-1,6.391228940E-2,-5.632999819E-3,-7.181800157E-2,-9.953520298E-1
1.221740690E-1,6.380934390E-2,-6.165999919E-3,-7.151900232E-2,-9.953770041E-1
1.322254690E-1,6.375550965E-2,-6.196000148E-3,-7.113199681E-2,-9.954079986E-1
1.422766500E-1,6.378371442E-2,-5.605000071E-3,-7.077699900E-2,-9.954349995E-1
1.523284000E-1,6.379176220E-2,-4.873999860E-3,-7.042899728E-2,-9.954630136E-1
1.623804000E-1,6.383851479E-2,-4.087999929E-3,-7.005400211E-2,-9.954900146E-1
1.724326850E-1,6.394148134E-2,-3.173999954E-3,-6.969399750E-2,-9.955120087E-1
1.824850850E-1,6.407674457E-2,-2.174000023E-3,-6.942199916E-2,-9.955250025E-1
1.925375220E-1,6.417863504E-2,-1.297999988E-3,-6.923499703E-2,-9.955329895E-1
2.025901100E-1,6.423396784E-2,-7.220000261E-4,-6.911999732E-2,-9.955379963E-1
2.126428320E-1,6.418934045E-2,-4.860000045E-4,-6.910599768E-2,-9.955419898E-1
2.227032000E-1,6.402991055E-2,-6.459999713E-4,-6.919500232E-2,-9.955459833E-1
2.327632500E-1,6.384146830E-2,-1.118000015E-3,-6.929100305E-2,-9.955509901E-1
2.428231070E-1,6.374681608E-2,-1.699000015E-3,-6.923700124E-2,-9.955599904E-1
2.528826520E-1,6.373177771E-2,-2.208000049E-3,-6.906399876E-2,-9.955719709E-1
2.629417380E-1,6.379148283E-2,-2.572000027E-3,-6.896699965E-2,-9.955739975E-1
2.730005710E-1,6.386985713E-2,-2.793000080E-3,-6.904499978E-2,-9.955629706E-1
2.830592510E-1,6.387399496E-2,-3.092000028E-3,-6.920100003E-2,-9.955509901E-1
2.931177890E-1,6.379986201E-2,-3.531000111E-3,-6.933400035E-2,-9.955450296E-1
3.031760480E-1,6.375679182E-2,-4.091000184E-3,-6.940100342E-2,-9.955409765E-1
3.132341550E-1,6.372222293E-2,-4.592000041E-3,-6.931500137E-2,-9.955469966E-1
3.232920170E-1,6.367211745E-2,-5.032999907E-3,-6.912899762E-2,-9.955610037E-1
3.333498170E-1,6.365547476E-2,-5.487000104E-3,-6.898000091E-2,-9.955700040E-1
3.434076830E-1,6.365069675E-2,-5.867999978E-3,-6.891000271E-2,-9.955729842E-1
3.534655830E-1,6.367325662E-2,-6.190999877E-3,-6.894700229E-2,-9.955670238E-1
3.635235160E-1,6.372754724E-2,-6.374999881E-3,-6.896699965E-2,-9.955610037E-1
3.735813160E-1,6.380387665E-2,-6.180999801E-3,-6.887099892E-2,-9.955639839E-1
3.836389160E-1,6.393747931E-2,-5.673999898E-3,-6.867499650E-2,-9.955719709E-1
3.936965820E-1,6.404493798E-2,-5.107999779E-3,-6.840100139E-2,-9.955869913E-1
4.037544820E-1,6.416114742E-2,-4.887999967E-3,-6.816200167E-2,-9.955970049E-1
4.138124480E-1,6.449535999E-2,-7.184999995E-3,-6.816899776E-2,-9.955610037E-1
4.238704810E-1,6.488558041E-2,-9.312000126E-3,-6.815499812E-2,-9.955189824E-1
4.339285140E-1,6.534099638E-2,-1.139300037E-2,-6.807500124E-2,-9.954730272E-1
4.439866470E-1,6.584981056E-2,-1.343400031E-2,-6.790000200E-2,-9.954259992E-1
4.540445470E-1,6.631240068E-2,-1.542599965E-2,-6.764200330E-2,-9.953839779E-1
4.641071130E-1,6.666915807E-2,-1.757900044E-2,-6.739799678E-2,-9.953410029E-1
4.741695790E-1,6.692168782E-2,-2.007099986E-2,-6.723400205E-2,-9.952880144E-1
4.842320790E-1,6.710528249E-2,-2.311600000E-2,-6.722799689E-2,-9.952099919E-1
4.942945120E-1,6.723531192E-2,-2.646899968E-2,-6.738600135E-2,-9.951069951E-1
5.043568120E-1,6.734225205E-2,-2.992999926E-2,-6.766100228E-2,-9.949830174E-1
5.144190450E-1,6.746833640E-2,-3.353700042E-2,-6.800500304E-2,-9.948359728E-1
5.244765110E-1,6.763368072E-2,-3.712600097E-2,-6.841699779E-2,-9.946690202E-1
5.345340440E-1,6.781188800E-2,-4.061999917E-2,-6.885600090E-2,-9.944900274E-1
5.445915440E-1,6.799565845E-2,-4.399799928E-2,-6.922700256E-2,-9.943079948E-1
5.546491770E-1,6.814658690E-2,-4.721000046E-2,-6.946100295E-2,-9.941340089E-1
5.647069770E-1,1.029008630E-1,-4.799599946E-2,-7.135999948E-2,-9.909669757E-1
5.747648770E-1,1.374827110E-1,-4.867900163E-2,-7.340800017E-2,-9.865800142E-1
5.848228100E-1,1.718594767E-1,-4.925300181E-2,-7.559599727E-2,-9.809809923E-1
5.948807430E-1,2.060116345E-1,-4.965899885E-2,-7.793799788E-2,-9.741759896E-1
6.049388760E-1,2.127481615E-1,-5.004400015E-2,-7.852599770E-2,-9.726600051E-1
6.149970760E-1,2.195127987E-1,-5.033000186E-2,-7.915300131E-2,-9.710900187E-1
6.250553420E-1,2.263238769E-1,-5.046600103E-2,-7.969199866E-2,-9.694740176E-1
6.351135750E-1,2.331118448E-1,-5.047399923E-2,-8.010199666E-2,-9.678300023E-1
6.451720410E-1,2.398716746E-1,-5.045299977E-2,-8.048599958E-2,-9.661459923E-1
6.552307410E-1,2.465444035E-1,-5.052600056E-2,-8.104699850E-2,-9.644140005E-1
6.652895410E-1,2.531766740E-1,-5.068799853E-2,-8.171699941E-2,-9.626290202E-1
6.753484410E-1,3.360496411E-1,-4.633500054E-2,-8.706600219E-2,-9.366660118E-1
6.854074410E-1,3.954144377E-1,-4.366400093E-2,-9.130299836E-2,-9.129099846E-1
6.954663740E-1,4.241765741E-1,-4.375100136E-2,-9.413799644E-2,-8.996099830E-1
7.055276400E-1,4.343377910E-1,-4.567100108E-2,-9.613499790E-2,-8.944399953E-1
7.155888730E-1,4.368639316E-1,-4.850500077E-2,-9.777899832E-2,-8.928809762E-1
7.256501390E-1,4.378243265E-1,-5.160300061E-2,-9.933300316E-2,-8.920649886E-1
7.357114390E-1,4.380097942E-1,-5.461699888E-2,-1.008159965E-1,-8.916280270E-1
7.457728720E-1,4.381077298E-1,-5.743699893E-2,-1.022529975E-1,-8.912389874E-1
7.558344380E-1,4.382688356E-1,-6.015300006E-2,-1.036510020E-1,-8.908190131E-1
7.658913040E-1,4.388910508E-1,-6.263899803E-2,-1.050179973E-1,-8.901810050E-1
7.759482040E-1,4.394551741E-1,-6.499999762E-2,-1.064009964E-1,-8.895689845E-1
7.860049700E-1,4.401329692E-1,-6.725499779E-2,-1.077879965E-1,-8.888990283E-1
7.960619030E-1,4.405597619E-1,-6.946899742E-2,-1.091659963E-1,-8.883489966E-1
8.061189690E-1,4.406579786E-1,-7.172799855E-2,-1.105699986E-1,-8.879470229E-1
8.161760020E-1,4.407280946E-1,-7.410400361E-2,-1.120539978E-1,-8.875309825E-1
8.262330020E-1,4.408263709E-1,-7.644800097E-2,-1.135429963E-1,-8.870940208E-1
8.362899020E-1,4.412698484E-1,-7.871799916E-2,-1.150550023E-1,-8.864799738E-1
8.463466020E-1,4.415348899E-1,-8.107800037E-2,-1.165790036E-1,-8.859360218E-1
8.564031350E-1,4.415412808E-1,-8.348900080E-2,-1.180500016E-1,-8.855140209E-1
8.664595680E-1,4.416188446E-1,-8.602099866E-2,-1.194360033E-1,-8.850470185E-1
8.765158680E-1,4.414275086E-1,-8.879899979E-2,-1.207699999E-1,-8.846870065E-1
8.865720010E-1,4.411543761E-1,-9.164399654E-2,-1.220529974E-1,-8.843569756E-1
8.966349340E-1,4.408723607E-1,-9.450300038E-2,-1.233619973E-1,-8.840150237E-1
9.066976340E-1,4.402580253E-1,-9.734299779E-2,-1.246879995E-1,-8.838269711E-1
9.167603000E-1,4.401134809E-1,-1.001920030E-1,-1.261290014E-1,-8.833760023E-1
9.268229660E-1,4.398019731E-1,-1.031629965E-1,-1.276679933E-1,-8.829680085E-1
9.368855660E-1,4.396147737E-1,-1.061389968E-1,-1.293060035E-1,-8.824700117E-1
9.469533320E-1,4.395104875E-1,-1.092120036E-1,-1.309999973E-1,-8.818969727E-1
9.570208650E-1,4.389048589E-1,-1.122739986E-1,-1.326259971E-1,-8.815709949E-1
9.670882650E-1,4.384898402E-1,-1.152440012E-1,-1.342719942E-1,-8.811450005E-1
9.771554980E-1,4.375240381E-1,-1.182790026E-1,-1.358499974E-1,-8.809810281E-1
9.872227640E-1,4.362133215E-1,-1.213060021E-1,-1.373810023E-1,-8.809819818E-1
9.972900970E-1,4.352736652E-1,-1.241889969E-1,-1.389369965E-1,-8.808010221E-1
1.007354930E0,4.335824888E-1,-1.271190047E-1,-1.403570026E-1,-8.809919953E-1
1.017419630E0,4.330441073E-1,-1.299760044E-1,-1.419599950E-1,-8.805829883E-1
1.027484163E0,4.326346714E-1,-1.329469979E-1,-1.436100006E-1,-8.800730109E-1
1.037548529E0,4.322123269E-1,-1.358820051E-1,-1.451590061E-1,-8.795779943E-1
1.047612762E0,4.314116619E-1,-1.389230043E-1,-1.465699971E-1,-8.792619705E-1
1.057676962E0,4.297588634E-1,-1.421239972E-1,-1.477279961E-1,-8.793659806E-1
1.067741062E0,4.265595249E-1,-1.456010044E-1,-1.486389935E-1,-8.802009821E-1
1.077805095E0,4.233410251E-1,-1.491249949E-1,-1.496569961E-1,-8.809919953E-1
1.087869228E0,4.213029025E-1,-1.524939984E-1,-1.510239989E-1,-8.811590075E-1
1.097933194E0,4.173031466E-1,-1.560889930E-1,-1.521120071E-1,-8.822450042E-1
1.107996927E0,4.161271357E-1,-1.589639932E-1,-1.536879987E-1,-8.820139766E-1
1.118060493E0,4.148807134E-1,-1.616259962E-1,-1.551920027E-1,-8.818539977E-1
1.128124026E0,4.141331890E-1,-1.640200019E-1,-1.567710042E-1,-8.814839721E-1
1.138187392E0,4.141083460E-1,-1.661989987E-1,-1.584500074E-1,-8.807870150E-1
1.148250658E0,4.138014870E-1,-1.684139967E-1,-1.599950045E-1,-8.802310228E-1
1.158313758E0,4.134135558E-1,-1.705999970E-1,-1.613219976E-1,-8.797500134E-1
1.168376658E0,4.121405989E-1,-1.728200018E-1,-1.622789949E-1,-8.797379732E-1
1.178439491E0,4.105610897E-1,-1.749980003E-1,-1.631170064E-1,-8.798909783E-1
1.188507057E0,4.088703975E-1,-1.771479994E-1,-1.639830023E-1,-8.800870180E-1
1.198567690E0,4.061450387E-1,-1.796340048E-1,-1.646890044E-1,-8.807129860E-1
1.208628456E0,4.050393302E-1,-1.821749955E-1,-1.657669991E-1,-8.804979920E-1
1.218689156E0,4.039842029E-1,-1.849800050E-1,-1.668779999E-1,-8.801879883E-1
1.228749822E0,4.018385306E-1,-1.880889982E-1,-1.678420007E-1,-8.803279996E-1
1.238810388E0,4.010688569E-1,-1.911610067E-1,-1.692630053E-1,-8.797450066E-1
1.248865521E0,3.994754996E-1,-1.945070028E-1,-1.705549955E-1,-8.794869781E-1
1.258920521E0,3.970310362E-1,-1.980520040E-1,-1.716330051E-1,-8.795930147E-1
1.268975487E0,3.950296925E-1,-2.015219927E-1,-1.727769971E-1,-8.794819713E-1
1.279030620E0,3.910920824E-1,-2.051880062E-1,-1.733549982E-1,-8.802800179E-1
1.289085786E0,3.895814994E-1,-2.081339955E-1,-1.743129939E-1,-8.800690174E-1
1.299140819E0,3.876337046E-1,-2.109819949E-1,-1.750230044E-1,-8.801100254E-1
1.309195952E0,3.858296732E-1,-2.137639970E-1,-1.757880002E-1,-8.800789714E-1
1.319251185E0,3.841695527E-1,-2.165520042E-1,-1.766200066E-1,-8.799570203E-1
1.329306551E0,3.816629051E-1,-2.195370048E-1,-1.772820055E-1,-8.801749945E-1
1.339362017E0,3.797251216E-1,-2.225479931E-1,-1.781039983E-1,-8.800910115E-1
1.349417317E0,3.776019359E-1,-2.258059978E-1,-1.789010018E-1,-8.800129890E-1
1.359472483E0,3.766678734E-1,-2.288420051E-1,-1.798910052E-1,-8.794270158E-1
1.369527616E0,3.761862985E-1,-2.315369993E-1,-1.808100045E-1,-8.787389994E-1
1.379582749E0,3.759547205E-1,-2.338870019E-1,-1.815979928E-1,-8.780530095E-1
1.389637749E0,3.757615907E-1,-2.358189970E-1,-1.822289973E-1,-8.774880171E-1
1.399692749E0,3.751209724E-1,-2.374850065E-1,-1.826989949E-1,-8.772150278E-1
1.409747882E0,3.736875885E-1,-2.391880006E-1,-1.829970032E-1,-8.773019910E-1
1.419803182E0,3.714717990E-1,-2.411720008E-1,-1.831779927E-1,-8.776620030E-1
1.429863282E0,3.678089110E-1,-2.437749952E-1,-1.830780059E-1,-8.785060048E-1
1.439923615E0,3.658131718E-1,-2.462150007E-1,-1.836089939E-1,-8.785480261E-1
1.449984315E0,3.650315580E-1,-2.483920008E-1,-1.845690012E-1,-8.780590296E-1
1.460045181E0,3.644652074E-1,-2.505489886E-1,-1.856800020E-1,-8.774470091E-1
1.470106247E0,3.637848884E-1,-2.527759969E-1,-1.868360043E-1,-8.768450022E-1
1.480167447E0,3.631831067E-1,-2.549149990E-1,-1.880290061E-1,-8.762199879E-1
1.490224147E0,3.612670399E-1,-2.572480142E-1,-1.888020039E-1,-8.761640191E-1
1.500280980E0,3.586692459E-1,-2.597610056E-1,-1.893620044E-1,-8.763689995E-1
1.510337746E0,3.562659305E-1,-2.621740103E-1,-1.898829937E-1,-8.765180111E-1
1.520394512E0,3.534397515E-1,-2.646259964E-1,-1.901240051E-1,-8.768730164E-1
1.530451378E0,3.503799770E-1,-2.670840025E-1,-1.901360005E-1,-8.773530126E-1
1.540508511E0,3.468821193E-1,-2.694329917E-1,-1.898330003E-1,-8.780900240E-1
1.550565777E0,3.439532112E-1,-2.712469995E-1,-1.895480007E-1,-8.787450194E-1
1.560623210E0,3.414159306E-1,-2.730160058E-1,-1.893880069E-1,-8.792210221E-1
1.570680710E0,3.386150625E-1,-2.748140097E-1,-1.891269982E-1,-8.798000216E-1
1.580738276E0,3.365928205E-1,-2.763479948E-1,-1.889709979E-1,-8.801289797E-1
1.590795809E0,3.353275568E-1,-2.777999938E-1,-1.889609993E-1,-8.801569939E-1
1.600853542E0,3.347070530E-1,-2.793110013E-1,-1.892119944E-1,-8.798609972E-1
1.610911342E0,3.348769169E-1,-2.802709937E-1,-1.896529943E-1,-8.793960214E-1
1.620969308E0,3.348320070E-1,-2.820999920E-1,-1.903149933E-1,-8.786849976E-1
1.631027408E0,3.345661035E-1,-2.845189869E-1,-1.910749972E-1,-8.778409958E-1
1.641085574E0,3.341576181E-1,-2.869020104E-1,-1.917109936E-1,-8.770819902E-1
1.651143840E0,3.334165800E-1,-2.893269956E-1,-1.923419982E-1,-8.764290214E-1
1.661202140E0,3.327595444E-1,-2.918449938E-1,-1.933079958E-1,-8.756309748E-1
1.671265273E0,3.321338729E-1,-2.944029868E-1,-1.947059929E-1,-8.747019768E-1
1.681328573E0,3.311847273E-1,-2.975740135E-1,-1.963039935E-1,-8.736310005E-1
1.691392139E0,3.297454694E-1,-3.013879955E-1,-1.978919953E-1,-8.725090027E-1
1.701455805E0,3.278464084E-1,-3.053669930E-1,-1.991689950E-1,-8.715500236E-1
1.711519705E0,3.258674279E-1,-3.090600073E-1,-1.999949962E-1,-8.708009720E-1
1.721583771E0,3.235585225E-1,-3.125559986E-1,-2.001650035E-1,-8.703749776E-1
1.731643171E0,3.218717713E-1,-3.155960143E-1,-2.001010031E-1,-8.699179888E-1
1.741702437E0,3.203634965E-1,-3.183549941E-1,-1.999460012E-1,-8.695049882E-1
1.751761503E0,3.190099419E-1,-3.213540018E-1,-2.000990063E-1,-8.688639998E-1
1.761820536E0,3.177504016E-1,-3.247140050E-1,-2.004629970E-1,-8.679919839E-1
1.771879536E0,3.163377065E-1,-3.282589912E-1,-2.006410062E-1,-8.671330214E-1
1.781938469E0,3.151156882E-1,-3.313910067E-1,-2.005819976E-1,-8.664000034E-1
1.791997235E0,3.142804779E-1,-3.339399993E-1,-2.004240006E-1,-8.657609820E-1
1.802055901E0,3.131514687E-1,-3.367809951E-1,-2.006970048E-1,-8.650060296E-1
1.812114634E0,3.121331442E-1,-3.401930034E-1,-2.018020004E-1,-8.637809753E-1
1.822173434E0,3.106588470E-1,-3.442290127E-1,-2.035969943E-1,-8.622909784E-1
1.832232167E0,3.089769554E-1,-3.482939899E-1,-2.059569955E-1,-8.607010245E-1
1.842290700E0,3.079334293E-1,-3.520280123E-1,-2.088450044E-1,-8.588579893E-1
1.852349066E0,3.069226040E-1,-3.559699953E-1,-2.118529975E-1,-8.568559885E-1
1.862407332E0,3.058665000E-1,-3.604309857E-1,-2.149080038E-1,-8.546050191E-1
1.872465565E0,3.049863566E-1,-3.653419912E-1,-2.182510048E-1,-8.519830108E-1
1.882523898E0,3.038770427E-1,-3.707740009E-1,-2.216980010E-1,-8.491380215E-1
1.892582331E0,3.027721859E-1,-3.762730062E-1,-2.249220014E-1,-8.462610245E-1
1.902640697E0,3.019284153E-1,-3.816010058E-1,-2.278410047E-1,-8.433910012E-1
1.912700363E0,3.012733235E-1,-3.867740035E-1,-2.304069996E-1,-8.405669928E-1
1.922759863E0,3.007355943E-1,-3.923389912E-1,-2.329999954E-1,-8.374599814E-1
1.932819229E0,3.003004082E-1,-3.972559869E-1,-2.352090031E-1,-8.346760273E-1
1.942878462E0,2.999631827E-1,-4.012719989E-1,-2.368469983E-1,-8.324099779E-1
1.952937662E0,2.995639762E-1,-4.049960077E-1,-2.379930019E-1,-8.304209709E-1
1.962996795E0,2.988906179E-1,-4.088990092E-1,-2.387689948E-1,-8.285260201E-1
1.973051161E0,2.980869847E-1,-4.129509926E-1,-2.393710017E-1,-8.266299963E-1
1.983105294E0,2.971851980E-1,-4.171090126E-1,-2.399120033E-1,-8.247079849E-1
1.993159094E0,2.964786538E-1,-4.213199914E-1,-2.406159937E-1,-8.226140141E-1
2.003212760E0,2.959944218E-1,-4.255169928E-1,-2.414149940E-1,-8.203909993E-1
2.013266060E0,2.956261004E-1,-4.294449985E-1,-2.421420068E-1,-8.182600141E-1
2.023318960E0,2.954705801E-1,-4.319489896E-1,-2.423889935E-1,-8.169239759E-1
2.033371460E0,2.953815779E-1,-4.331080019E-1,-2.422350049E-1,-8.163880110E-1
2.043423993E0,2.952523885E-1,-4.334920049E-1,-2.420829982E-1,-8.162760139E-1
2.053476626E0,2.946633257E-1,-4.334090054E-1,-2.420489937E-1,-8.165429831E-1
2.063529292E0,2.940260401E-1,-4.331229925E-1,-2.421649992E-1,-8.168900013E-1
2.073582058E0,2.935537305E-1,-4.327059984E-1,-2.422789931E-1,-8.172469735E-1
2.083634758E0,2.932218541E-1,-4.323230088E-1,-2.423759997E-1,-8.175399899E-1
2.093687324E0,2.931637707E-1,-4.314140081E-1,-2.421829998E-1,-8.180980086E-1
2.103739857E0,2.933743072E-1,-4.293499887E-1,-2.413859963E-1,-8.193429708E-1
2.113792223E0,2.936606673E-1,-4.265570045E-1,-2.402579933E-1,-8.210290074E-1
2.123844456E0,2.944610522E-1,-4.228020012E-1,-2.390079945E-1,-8.230469823E-1
2.133896622E0,2.954047121E-1,-4.186809957E-1,-2.378890067E-1,-8.251370192E-1
2.143948622E0,2.964632885E-1,-4.141510129E-1,-2.364950031E-1,-8.274409771E-1
2.154005222E0,2.980503006E-1,-4.084460139E-1,-2.347570062E-1,-8.301969767E-1
2.164061755E0,3.003892207E-1,-4.012989998E-1,-2.330269963E-1,-8.333209753E-1
2.174118188E0,3.030612766E-1,-3.925819993E-1,-2.311400026E-1,-8.370230198E-1
2.184174321E0,3.053241573E-1,-3.823960125E-1,-2.279109955E-1,-8.417879939E-1
2.194230254E0,3.065135507E-1,-3.699479997E-1,-2.214740068E-1,-8.486089706E-1
2.204286054E0,3.070558268E-1,-3.565340042E-1,-2.132340074E-1,-8.562309742E-1
2.214340487E0,3.075552612E-1,-3.428350091E-1,-2.043520063E-1,-8.637790084E-1
2.224394853E0,3.086744307E-1,-3.290700018E-1,-1.955630034E-1,-8.707399964E-1
2.234448986E0,3.108524345E-1,-3.162139952E-1,-1.871979982E-1,-8.765479922E-1
2.244502886E0,3.143333090E-1,-3.043099940E-1,-1.789219975E-1,-8.812360168E-1
2.254556819E0,3.182167516E-1,-2.956179976E-1,-1.716360003E-1,-8.842449784E-1
2.264610752E0,3.217844064E-1,-2.915579975E-1,-1.666450053E-1,-8.852559924E-1
2.274664552E0,3.246598766E-1,-2.910999954E-1,-1.646659970E-1,-8.847270012E-1
2.284718318E0,3.267170657E-1,-2.937889993E-1,-1.656139940E-1,-8.829020262E-1
2.294772151E0,3.267993694E-1,-2.998059988E-1,-1.686459929E-1,-8.802710176E-1
2.304825984E0,3.250160614E-1,-3.079110086E-1,-1.733369976E-1,-8.772169948E-1
2.314879817E0,3.215010988E-1,-3.150959909E-1,-1.788450032E-1,-8.748520017E-1
2.324933750E0,3.168266689E-1,-3.188019991E-1,-1.835500002E-1,-8.742399812E-1
2.334987783E0,3.132533851E-1,-3.163540065E-1,-1.851149946E-1,-8.760849833E-1
2.345041683E0,3.116961977E-1,-3.055390120E-1,-1.818650067E-1,-8.811450005E-1
2.355095316E0,3.133384944E-1,-2.845920026E-1,-1.741939932E-1,-8.890910149E-1
2.365148816E0,3.184930403E-1,-2.580690086E-1,-1.650470048E-1,-8.970630169E-1
2.375202249E0,3.244306664E-1,-2.328460068E-1,-1.563999951E-1,-9.033640027E-1
2.385255682E0,3.296189823E-1,-2.127870023E-1,-1.490239948E-1,-9.076700211E-1
2.395313848E0,3.339507718E-1,-1.984889954E-1,-1.437630057E-1,-9.101709723E-1
2.405371981E0,3.367269753E-1,-1.915529966E-1,-1.413490027E-1,-9.110119939E-1
2.415430081E0,3.383567870E-1,-1.919150054E-1,-1.414369941E-1,-9.103180170E-1
2.425488014E0,3.386433639E-1,-1.977439970E-1,-1.431799978E-1,-9.086899757E-1
2.435545880E0,3.375049010E-1,-2.070309967E-1,-1.458009928E-1,-9.066259861E-1
2.445603813E0,3.359066033E-1,-2.179439962E-1,-1.488080025E-1,-9.041699767E-1
2.455657246E0,3.347278517E-1,-2.286719978E-1,-1.519609988E-1,-9.014289975E-1
2.465710712E0,3.338513075E-1,-2.380850017E-1,-1.546040028E-1,-8.988639712E-1
2.475764245E0,3.332825742E-1,-2.459989935E-1,-1.568379998E-1,-8.965539932E-1
2.485817845E0,3.329758544E-1,-2.524240017E-1,-1.586049944E-1,-8.945689797E-1
2.495871511E0,3.332701889E-1,-2.567929924E-1,-1.597210020E-1,-8.930159807E-1
2.505925211E0,3.337057259E-1,-2.596859932E-1,-1.599230021E-1,-8.919799924E-1
2.515978877E0,3.340319464E-1,-2.622529864E-1,-1.600089967E-1,-8.910909891E-1
2.526032577E0,3.345278657E-1,-2.641470134E-1,-1.603270024E-1,-8.902879953E-1
2.536086510E0,3.351285482E-1,-2.643080056E-1,-1.607940048E-1,-8.899300098E-1
2.546140776E0,3.358613472E-1,-2.634370029E-1,-1.619080007E-1,-8.897100091E-1
2.556194976E0,3.366783291E-1,-2.621009946E-1,-1.634110063E-1,-8.895210028E-1
2.566249109E0,3.380392146E-1,-2.595869899E-1,-1.644369960E-1,-8.895530105E-1
2.576303109E0,3.400179945E-1,-2.552999854E-1,-1.645800024E-1,-8.900129795E-1
2.586356942E0,3.425001130E-1,-2.495370060E-1,-1.638119966E-1,-8.908370137E-1
2.596410708E0,3.460355256E-1,-2.426860034E-1,-1.626230031E-1,-8.915809989E-1
2.606464408E0,3.490743146E-1,-2.358909994E-1,-1.613110006E-1,-8.924580216E-1
